Wavelength(um),R_with,R_without
0.4,0.126742,0.0247582
0.401001,0.127207,0.0248049
0.402002,0.127485,0.0248634
0.403002,0.127553,0.024933
0.404003,0.127391,0.0250133
0.405004,0.126976,0.0251035
0.406005,0.126289,0.025203
0.407006,0.125314,0.0253109
0.408006,0.124041,0.0254266
0.409007,0.122464,0.0255494
0.410008,0.120583,0.0256783
0.411009,0.118406,0.0258127
0.41201,0.115944,0.0259518
0.41301,0.113216,0.0260948
0.414011,0.110244,0.026241
0.415012,0.107054,0.0263896
0.416013,0.103675,0.02654
0.417014,0.100139,0.0266914
0.418014,0.0964758,0.0268432
0.419015,0.0927162,0.0269948
0.420016,0.0888893,0.0271456
0.421017,0.0850219,0.0272951
0.422018,0.0811381,0.0274426
0.423018,0.0772587,0.0275879
0.424019,0.0734011,0.0277303
0.42502,0.0695795,0.0278696
0.426021,0.0658046,0.0280053
0.427022,0.0620846,0.0281372
0.428022,0.0584251,0.0282649
0.429023,0.0548299,0.0283883
0.430024,0.0513014,0.0285072
0.431025,0.0478415,0.0286213
0.432026,0.0444517,0.0287306
0.433026,0.041134,0.0288349
0.434027,0.0378911,0.0289343
0.435028,0.0347267,0.0290286
0.436029,0.031646,0.029118
0.43703,0.0286552,0.0292024
0.43803,0.0257621,0.0292818
0.439031,0.0229756,0.0293564
0.440032,0.0203058,0.0294263
0.441033,0.0177632,0.0294916
0.442034,0.0153592,0.0295525
0.443034,0.0131047,0.0296091
0.444035,0.0110108,0.0296616
0.445036,0.00908757,0.0297101
0.446037,0.00734432,0.0297549
0.447038,0.00578899,0.0297963
0.448038,0.004428,0.0298343
0.449039,0.00326613,0.0298693
0.45004,0.00230638,0.0299015
0.451041,0.00154995,0.0299311
0.452042,0.000996266,0.0299583
0.453042,0.000643112,0.0299834
0.454043,0.000486752,0.0300066
0.455044,0.000522133,0.0300282
0.456045,0.000743118,0.0300483
0.457046,0.00114272,0.0300672
0.458046,0.00171338,0.0300852
0.459047,0.00244717,0.0301023
0.460048,0.00333608,0.0301189
0.461049,0.00437218,0.0301352
0.46205,0.00554783,0.0301513
0.46305,0.0068558,0.0301674
0.464051,0.00828936,0.0301837
0.465052,0.00984236,0.0302004
0.466053,0.0115092,0.0302176
0.467054,0.0132849,0.0302354
0.468054,0.0151648,0.030254
0.469055,0.0171448,0.0302736
0.470056,0.019221,0.0302942
0.471057,0.0213895,0.030316
0.472058,0.0236467,0.030339
0.473058,0.0259885,0.0303633
0.474059,0.0284108,0.030389
0.47506,0.0309088,0.0304162
0.476061,0.0334773,0.030445
0.477062,0.0361107,0.0304752
0.478062,0.0388023,0.0305071
0.479063,0.041545,0.0305407
0.480064,0.044331,0.0305759
0.481065,0.0471518,0.0306127
0.482066,0.0499983,0.0306512
0.483066,0.0528608,0.0306914
0.484067,0.0557295,0.0307333
0.485068,0.058594,0.0307767
0.486069,0.0614442,0.0308218
0.48707,0.0642697,0.0308684
0.48807,0.0670605,0.0309166
0.489071,0.0698071,0.0309662
0.490072,0.0725002,0.0310173
0.491073,0.0751316,0.0310698
0.492074,0.0776937,0.0311236
0.493074,0.0801797,0.0311787
0.494075,0.0825841,0.031235
0.495076,0.0849022,0.0312924
0.496077,0.0871307,0.0313508
0.497078,0.0892671,0.0314103
0.498078,0.0913103,0.0314706
0.499079,0.09326,0.0315318
0.50008,0.095117,0.0315938
0.501081,0.0968831,0.0316564
0.502082,0.0985608,0.0317196
0.503082,0.100153,0.0317834
0.504083,0.101664,0.0318475
0.505084,0.103098,0.0319121
0.506085,0.104459,0.0319769
0.507086,0.105751,0.0320418
0.508086,0.10698,0.0321069
0.509087,0.108149,0.0321721
0.510088,0.109263,0.0322372
0.511089,0.110325,0.0323022
0.51209,0.111339,0.032367
0.51309,0.112307,0.0324315
0.514091,0.113232,0.0324957
0.515092,0.114114,0.0325596
0.516093,0.114956,0.0326229
0.517094,0.115756,0.0326857
0.518094,0.116514,0.032748
0.519095,0.117229,0.0328096
0.520096,0.1179,0.0328705
0.521097,0.118523,0.0329307
0.522098,0.119096,0.0329901
0.523098,0.119616,0.0330486
0.524099,0.120079,0.0331063
0.5251,0.120482,0.033163
0.526101,0.12082,0.0332187
0.527102,0.121091,0.0332735
0.528102,0.121289,0.0333272
0.529103,0.121412,0.0333798
0.530104,0.121457,0.0334314
0.531105,0.121419,0.0334818
0.532106,0.121297,0.0335311
0.533106,0.121089,0.0335793
0.534107,0.120793,0.0336262
0.535108,0.120407,0.033672
0.536109,0.119931,0.0337166
0.53711,0.119365,0.03376
0.53811,0.11871,0.0338022
0.539111,0.117967,0.0338431
0.540112,0.117137,0.0338828
0.541113,0.116223,0.0339213
0.542114,0.115227,0.0339586
0.543114,0.114153,0.0339947
0.544115,0.113003,0.0340296
0.545116,0.111783,0.0340633
0.546117,0.110497,0.0340958
0.547118,0.109147,0.0341271
0.548118,0.10774,0.0341573
0.549119,0.10628,0.0341863
0.55012,0.104772,0.0342141
0.551121,0.10322,0.0342409
0.552122,0.101629,0.0342666
0.553122,0.100004,0.0342912
0.554123,0.0983493,0.0343147
0.555124,0.0966691,0.0343372
0.556125,0.0949674,0.0343587
0.557126,0.0932481,0.0343792
0.558127,0.0915147,0.0343988
0.559127,0.0897704,0.0344174
0.560128,0.0880183,0.0344351
0.561129,0.0862609,0.0344519
0.56213,0.0845006,0.0344678
0.563131,0.0827394,0.034483
0.564131,0.0809791,0.0344973
0.565132,0.0792212,0.0345108
0.566133,0.0774669,0.0345236
0.567134,0.0757172,0.0345357
0.568135,0.0739729,0.0345471
0.569135,0.0722345,0.0345578
0.570136,0.0705026,0.0345678
0.571137,0.0687774,0.0345773
0.572138,0.0670591,0.0345862
0.573139,0.0653478,0.0345945
0.574139,0.0636436,0.0346023
0.57514,0.0619466,0.0346096
0.576141,0.0602568,0.0346164
0.577142,0.0585742,0.0346228
0.578143,0.056899,0.0346287
0.579143,0.0552314,0.0346343
0.580144,0.0535715,0.0346395
0.581145,0.0519198,0.0346443
0.582146,0.0502765,0.0346488
0.583147,0.0486424,0.0346531
0.584147,0.047018,0.034657
0.585148,0.045404,0.0346607
0.586149,0.0438014,0.0346641
0.58715,0.0422112,0.0346674
0.588151,0.0406343,0.0346705
0.589151,0.0390721,0.0346734
0.590152,0.0375258,0.0346761
0.591153,0.0359968,0.0346787
0.592154,0.0344865,0.0346812
0.593155,0.0329963,0.0346836
0.594155,0.031528,0.034686
0.595156,0.0300829,0.0346882
0.596157,0.0286628,0.0346905
0.597158,0.0272692,0.0346927
0.598159,0.0259037,0.0346949
0.599159,0.024568,0.0346971
0.60016,0.0232635,0.0346993
0.601161,0.0219917,0.0347015
0.602162,0.0207542,0.0347037
0.603163,0.0195523,0.0347061
0.604163,0.0183873,0.0347084
0.605164,0.0172604,0.0347109
0.606165,0.0161728,0.0347134
0.607166,0.0151254,0.034716
0.608167,0.0141193,0.0347187
0.609167,0.0131553,0.0347215
0.610168,0.0122341,0.0347244
0.611169,0.0113563,0.0347274
0.61217,0.0105224,0.0347306
0.613171,0.00973282,0.0347338
0.614171,0.0089879,0.0347372
0.615172,0.0082878,0.0347408
0.616173,0.00763263,0.0347445
0.617174,0.0070224,0.0347483
0.618175,0.00645701,0.0347523
0.619175,0.00593631,0.0347564
0.620176,0.00546004,0.0347606
0.621177,0.00502791,0.0347651
0.622178,0.00463951,0.0347696
0.623179,0.00429443,0.0347744
0.624179,0.00399217,0.0347793
0.62518,0.00373219,0.0347843
0.626181,0.00351393,0.0347895
0.627182,0.00333679,0.0347948
0.628183,0.00320014,0.0348003
0.629183,0.00310332,0.034806
0.630184,0.00304569,0.0348117
0.631185,0.00302656,0.0348177
0.632186,0.00304527,0.0348238
0.633187,0.00310114,0.03483
0.634187,0.00319348,0.0348363
0.635188,0.00332165,0.0348428
0.636189,0.00348497,0.0348495
0.63719,0.0036828,0.0348562
0.638191,0.00391451,0.0348631
0.639191,0.00417946,0.0348701
0.640192,0.00447705,0.0348772
0.641193,0.00480669,0.0348844
0.642194,0.00516779,0.0348917
0.643195,0.00555979,0.0348991
0.644195,0.00598211,0.0349067
0.645196,0.00643423,0.0349143
0.646197,0.00691559,0.034922
0.647198,0.00742567,0.0349297
0.648199,0.00796395,0.0349376
0.649199,0.00852988,0.0349455
0.6502,0.00912296,0.0349535
0.651201,0.00974266,0.0349616
0.652202,0.0103884,0.0349697
0.653203,0.0110598,0.0349778
0.654203,0.0117561,0.034986
0.655204,0.0124769,0.0349942
0.656205,0.0132215,0.0350025
0.657206,0.0139894,0.0350108
0.658207,0.01478,0.0350191
0.659207,0.0155927,0.0350274
0.660208,0.0164268,0.0350358
0.661209,0.0172816,0.0350441
0.66221,0.0181564,0.0350524
0.663211,0.0190506,0.0350607
0.664211,0.0199635,0.0350691
0.665212,0.0208941,0.0350774
0.666213,0.0218419,0.0350856
0.667214,0.0228059,0.0350939
0.668215,0.0237853,0.0351021
0.669215,0.0247793,0.0351102
0.670216,0.0257871,0.0351183
0.671217,0.0268076,0.0351264
0.672218,0.0278401,0.0351344
0.673219,0.0288836,0.0351424
0.674219,0.0299371,0.0351503
0.67522,0.0309997,0.0351581
0.676221,0.0320706,0.0351658
0.677222,0.0331486,0.0351735
0.678223,0.0342328,0.035181
0.679223,0.0353224,0.0351885
0.680224,0.0364162,0.0351959
0.681225,0.0375134,0.0352032
0.682226,0.0386131,0.0352104
0.683227,0.0397141,0.0352175
0.684227,0.0408158,0.0352245
0.685228,0.041917,0.0352314
0.686229,0.043017,0.0352382
0.68723,0.0441149,0.0352448
0.688231,0.0452098,0.0352513
0.689231,0.046301,0.0352577
0.690232,0.0473875,0.035264
0.691233,0.0484687,0.0352701
0.692234,0.0495439,0.0352762
0.693235,0.0506123,0.035282
0.694235,0.0516733,0.0352878
0.695236,0.0527263,0.0352934
0.696237,0.0537706,0.0352988
0.697238,0.0548059,0.0353041
0.698239,0.0558314,0.0353093
0.699239,0.0568469,0.0353143
0.70024,0.0578518,0.0353191
0.701241,0.0588459,0.0353238
0.702242,0.0598286,0.0353284
0.703243,0.0607999,0.0353328
0.704243,0.0617593,0.035337
0.705244,0.0627068,0.0353411
0.706245,0.063642,0.035345
0.707246,0.0645649,0.0353487
0.708247,0.0654753,0.0353523
0.709247,0.0663733,0.0353558
0.710248,0.0672586,0.035359
0.711249,0.0681314,0.0353621
0.71225,0.0689917,0.0353651
0.713251,0.0698395,0.0353679
0.714251,0.0706748,0.0353705
0.715252,0.0714978,0.0353729
0.716253,0.0723085,0.0353752
0.717254,0.0731072,0.0353773
0.718255,0.073894,0.0353793
0.719255,0.074669,0.0353811
0.720256,0.0754324,0.0353827
0.721257,0.0761844,0.0353842
0.722258,0.0769251,0.0353855
0.723259,0.0776549,0.0353866
0.724259,0.0783738,0.0353876
0.72526,0.0790822,0.0353884
0.726261,0.0797801,0.0353891
0.727262,0.0804678,0.0353896
0.728263,0.0811454,0.0353899
0.729263,0.0818132,0.0353901
0.730264,0.0824714,0.0353901
0.731265,0.08312,0.03539
0.732266,0.0837592,0.0353897
0.733267,0.0843892,0.0353893
0.734267,0.0850102,0.0353887
0.735268,0.0856221,0.0353879
0.736269,0.0862251,0.035387
0.73727,0.0868193,0.035386
0.738271,0.0874046,0.0353848
0.739271,0.0879813,0.0353835
0.740272,0.0885492,0.035382
0.741273,0.0891083,0.0353804
0.742274,0.0896587,0.0353787
0.743275,0.0902003,0.0353768
0.744275,0.090733,0.0353748
0.745276,0.0912568,0.0353726
0.746277,0.0917715,0.0353704
0.747278,0.0922771,0.0353679
0.748279,0.0927734,0.0353654
0.749279,0.0932602,0.0353627
0.75028,0.0937374,0.0353599
0.751281,0.0942048,0.035357
0.752282,0.0946621,0.035354
0.753283,0.0951093,0.0353508
0.754283,0.0955461,0.0353476
0.755284,0.0959722,0.0353442
0.756285,0.0963874,0.0353407
0.757286,0.0967914,0.0353371
0.758287,0.0971841,0.0353334
0.759287,0.0975651,0.0353296
0.760288,0.0979341,0.0353257
0.761289,0.098291,0.0353216
0.76229,0.0986354,0.0353175
0.763291,0.0989671,0.0353133
0.764291,0.0992858,0.035309
0.765292,0.0995913,0.0353046
0.766293,0.0998833,0.0353001
0.767294,0.100161,0.0352955
0.768295,0.100426,0.0352908
0.769295,0.100676,0.0352861
0.770296,0.100911,0.0352812
0.771297,0.101132,0.0352763
0.772298,0.101338,0.0352713
0.773299,0.101529,0.0352662
0.774299,0.101705,0.0352611
0.7753,0.101865,0.0352559
0.776301,0.10201,0.0352506
0.777302,0.102139,0.0352453
0.778303,0.102252,0.0352398
0.779303,0.10235,0.0352344
0.780304,0.102432,0.0352288
0.781305,0.102497,0.0352232
0.782306,0.102547,0.0352176
0.783307,0.10258,0.0352118
0.784307,0.102598,0.0352061
0.785308,0.102599,0.0352003
0.786309,0.102584,0.0351944
0.78731,0.102554,0.0351885
0.788311,0.102507,0.0351825
0.789311,0.102445,0.0351765
0.790312,0.102367,0.0351705
0.791313,0.102274,0.0351644
0.792314,0.102165,0.0351583
0.793315,0.102042,0.0351521
0.794315,0.101903,0.0351459
0.795316,0.101749,0.0351397
0.796317,0.10158,0.0351335
0.797318,0.101398,0.0351272
0.798319,0.101201,0.0351209
0.799319,0.10099,0.0351146
0.80032,0.100766,0.0351082
0.801321,0.100528,0.0351018
0.802322,0.100277,0.0350954
0.803323,0.100014,0.035089
0.804323,0.0997376,0.0350826
0.805324,0.0994495,0.0350761
0.806325,0.0991496,0.0350697
0.807326,0.0988382,0.0350632
0.808327,0.0985158,0.0350567
0.809327,0.0981825,0.0350502
0.810328,0.0978388,0.0350437
0.811329,0.097485,0.0350372
0.81233,0.0971214,0.0350307
0.813331,0.0967484,0.0350242
0.814331,0.0963664,0.0350176
0.815332,0.0959756,0.0350111
0.816333,0.0955765,0.0350046
0.817334,0.0951694,0.0349981
0.818335,0.0947545,0.0349916
0.819335,0.0943323,0.0349851
0.820336,0.0939031,0.0349786
0.821337,0.0934671,0.0349721
0.822338,0.0930248,0.0349656
0.823339,0.0925764,0.0349591
0.824339,0.0921222,0.0349526
0.82534,0.0916626,0.0349462
0.826341,0.0911977,0.0349397
0.827342,0.090728,0.0349333
0.828343,0.0902536,0.0349268
0.829343,0.0897748,0.0349204
0.830344,0.0892919,0.034914
0.831345,0.0888051,0.0349077
0.832346,0.0883146,0.0349013
0.833347,0.0878207,0.034895
0.834347,0.0873236,0.0348887
0.835348,0.0868234,0.0348824
0.836349,0.0863205,0.0348761
0.83735,0.0858148,0.0348699
0.838351,0.0853067,0.0348636
0.839351,0.0847962,0.0348574
0.840352,0.0842836,0.0348513
0.841353,0.0837689,0.0348451
0.842354,0.0832523,0.034839
0.843355,0.0827339,0.0348329
0.844355,0.0822139,0.0348268
0.845356,0.0816922,0.0348208
0.846357,0.081169,0.0348148
0.847358,0.0806445,0.0348088
0.848359,0.0801185,0.0348028
0.849359,0.0795914,0.0347969
0.85036,0.0790629,0.034791
0.851361,0.0785334,0.0347852
0.852362,0.0780027,0.0347794
0.853363,0.0774709,0.0347736
0.854363,0.076938,0.0347678
0.855364,0.0764042,0.0347621
0.856365,0.0758693,0.0347564
0.857366,0.0753334,0.0347508
0.858367,0.0747965,0.0347452
0.859367,0.0742587,0.0347396
0.860368,0.0737198,0.034734
0.861369,0.07318,0.0347285
0.86237,0.0726392,0.0347231
0.863371,0.0720975,0.0347176
0.864371,0.0715547,0.0347122
0.865372,0.0710109,0.0347069
0.866373,0.0704661,0.0347016
0.867374,0.0699203,0.0346963
0.868375,0.0693734,0.0346911
0.869376,0.0688255,0.0346859
0.870376,0.0682765,0.0346807
0.871377,0.0677265,0.0346756
0.872378,0.0671753,0.0346705
0.873379,0.0666231,0.0346655
0.87438,0.0660698,0.0346605
0.87538,0.0655153,0.0346555
0.876381,0.0649598,0.0346506
0.877382,0.0644032,0.0346457
0.878383,0.0638454,0.0346409
0.879384,0.0632865,0.0346361
0.880384,0.0627266,0.0346313
0.881385,0.0621655,0.0346266
0.882386,0.0616034,0.0346219
0.883387,0.0610402,0.0346173
0.884388,0.060476,0.0346127
0.885388,0.0599108,0.0346082
0.886389,0.0593446,0.0346036
0.88739,0.0587774,0.0345992
0.888391,0.0582094,0.0345948
0.889392,0.0576404,0.0345904
0.890392,0.0570706,0.034586
0.891393,0.0565,0.0345817
0.892394,0.0559287,0.0345775
0.893395,0.0553567,0.0345732
0.894396,0.0547841,0.0345691
0.895396,0.0542109,0.0345649
0.896397,0.0536372,0.0345608
0.897398,0.0530631,0.0345568
0.898399,0.0524886,0.0345528
0.8994,0.0519139,0.0345488
0.9004,0.0513389,0.0345449
0.901401,0.0507638,0.034541
0.902402,0.0501887,0.0345371
0.903403,0.0496137,0.0345333
0.904404,0.0490388,0.0345295
0.905404,0.0484641,0.0345258
0.906405,0.0478898,0.0345221
0.907406,0.0473159,0.0345185
0.908407,0.0467426,0.0345149
0.909408,0.0461699,0.0345113
0.910408,0.0455979,0.0345077
0.911409,0.0450268,0.0345042
0.91241,0.0444566,0.0345008
0.913411,0.0438875,0.0344974
0.914412,0.0433196,0.034494
0.915412,0.042753,0.0344907
0.916413,0.0421878,0.0344873
0.917414,0.0416241,0.0344841
0.918415,0.041062,0.0344809
0.919416,0.0405017,0.0344777
0.920416,0.0399432,0.0344745
0.921417,0.0393867,0.0344714
0.922418,0.0388322,0.0344683
0.923419,0.03828,0.0344653
0.92442,0.03773,0.0344622
0.92542,0.0371824,0.0344593
0.926421,0.0366374,0.0344563
0.927422,0.036095,0.0344534
0.928423,0.0355553,0.0344506
0.929424,0.0350185,0.0344477
0.930424,0.0344846,0.0344449
0.931425,0.0339538,0.0344422
0.932426,0.0334261,0.0344394
0.933427,0.0329017,0.0344367
0.934428,0.0323806,0.0344341
0.935428,0.031863,0.0344314
0.936429,0.0313489,0.0344288
0.93743,0.0308385,0.0344262
0.938431,0.0303317,0.0344237
0.939432,0.0298288,0.0344212
0.940432,0.0293297,0.0344187
0.941433,0.0288346,0.0344163
0.942434,0.0283436,0.0344139
0.943435,0.0278567,0.0344115
0.944436,0.027374,0.0344091
0.945436,0.0268955,0.0344068
0.946437,0.0264214,0.0344045
0.947438,0.0259517,0.0344023
0.948439,0.0254865,0.0344
0.94944,0.0250258,0.0343978
0.95044,0.0245697,0.0343956
0.951441,0.0241183,0.0343935
0.952442,0.0236715,0.0343914
0.953443,0.0232295,0.0343893
0.954444,0.0227923,0.0343872
0.955444,0.0223599,0.0343852
0.956445,0.0219324,0.0343831
0.957446,0.0215099,0.0343812
0.958447,0.0210922,0.0343792
0.959448,0.0206796,0.0343773
0.960448,0.020272,0.0343753
0.961449,0.0198695,0.0343735
0.96245,0.019472,0.0343716
0.963451,0.0190796,0.0343698
0.964452,0.0186924,0.0343679
0.965452,0.0183103,0.0343661
0.966453,0.0179334,0.0343644
0.967454,0.0175616,0.0343626
0.968455,0.0171951,0.0343609
0.969456,0.0168337,0.0343592
0.970456,0.0164776,0.0343575
0.971457,0.0161267,0.0343559
0.972458,0.015781,0.0343542
0.973459,0.0154405,0.0343526
0.97446,0.0151053,0.034351
0.97546,0.0147754,0.0343495
0.976461,0.0144506,0.0343479
0.977462,0.0141311,0.0343464
0.978463,0.0138169,0.0343449
0.979464,0.0135078,0.0343434
0.980464,0.013204,0.0343419
0.981465,0.0129054,0.0343404
0.982466,0.012612,0.034339
0.983467,0.0123238,0.0343376
0.984468,0.0120408,0.0343362
0.985468,0.011763,0.0343348
0.986469,0.0114903,0.0343334
0.98747,0.0112227,0.0343321
0.988471,0.0109604,0.0343308
0.989472,0.0107031,0.0343294
0.990472,0.0104509,0.0343281
0.991473,0.0102038,0.0343269
0.992474,0.00996184,0.0343256
0.993475,0.00972489,0.0343243
0.994476,0.00949298,0.0343231
0.995476,0.00926609,0.0343219
0.996477,0.00904421,0.0343207
0.997478,0.00882731,0.0343195
0.998479,0.00861537,0.0343183
0.99948,0.00840838,0.0343171
1.00048,0.00820631,0.034316
1.00148,0.00800915,0.0343149
1.00248,0.00781688,0.0343137
1.00348,0.00762948,0.0343126
1.00448,0.00744692,0.0343115
1.00548,0.00726919,0.0343105
1.00649,0.00709626,0.0343094
1.00749,0.00692812,0.0343083
1.00849,0.00676475,0.0343073
1.00949,0.00660612,0.0343062
1.01049,0.00645222,0.0343052
1.01149,0.00630303,0.0343042
1.01249,0.00615852,0.0343032
1.01349,0.00601868,0.0343022
1.01449,0.00588348,0.0343012
1.01549,0.00575291,0.0343003
1.01649,0.00562694,0.0342993
1.01749,0.00550556,0.0342984
1.01849,0.00538874,0.0342974
1.0195,0.00527648,0.0342965
1.0205,0.00516874,0.0342956
1.0215,0.0050655,0.0342947
1.0225,0.00496676,0.0342938
1.0235,0.00487249,0.0342929
1.0245,0.00478266,0.034292
1.0255,0.00469727,0.0342911
1.0265,0.00461629,0.0342903
1.0275,0.00453971,0.0342894
1.0285,0.00446749,0.0342886
1.0295,0.00439964,0.0342877
1.0305,0.00433612,0.0342869
1.03151,0.00427692,0.0342861
1.03251,0.00422202,0.0342852
1.03351,0.0041714,0.0342844
1.03451,0.00412505,0.0342836
1.03551,0.00408293,0.0342828
1.03651,0.00404505,0.034282
1.03751,0.00401136,0.0342813
1.03851,0.00398187,0.0342805
1.03951,0.00395655,0.0342797
1.04051,0.00393537,0.0342789
1.04151,0.00391832,0.0342782
1.04251,0.00390539,0.0342774
1.04351,0.00389655,0.0342767
1.04452,0.00389178,0.034276
1.04552,0.00389107,0.0342752
1.04652,0.00389438,0.0342745
1.04752,0.00390172,0.0342738
1.04852,0.00391304,0.034273
1.04952,0.00392834,0.0342723
1.05052,0.0039476,0.0342716
1.05152,0.00397079,0.0342709
1.05252,0.00399788,0.0342702
1.05352,0.00402887,0.0342695
1.05452,0.00406373,0.0342688
1.05552,0.00410244,0.0342681
1.05653,0.00414498,0.0342675
1.05753,0.00419132,0.0342668
1.05853,0.00424144,0.0342661
1.05953,0.00429532,0.0342654
1.06053,0.00435294,0.0342648
1.06153,0.00441428,0.0342641
1.06253,0.0044793,0.0342635
1.06353,0.00454799,0.0342628
1.06453,0.00462032,0.0342622
1.06553,0.00469627,0.0342615
1.06653,0.00477582,0.0342609
1.06753,0.00485893,0.0342602
1.06853,0.00494559,0.0342596
1.06954,0.00503576,0.0342589
1.07054,0.00512943,0.0342583
1.07154,0.00522656,0.0342577
1.07254,0.00532713,0.0342571
